

# -120dBm, all amps on
# Scan parameters: power 16.000000 dBm, bandwidth 1.500000 Hz
# Frequency [MHz]	avg noise	std noise	peak value
10000.000000	363.059507	396.277648	2354393.971421
9990.000000	471.897925	531.218635	1619692.554333
9980.000000	345.441329	424.421936	1503135.340718
9970.000000	351.785110	421.070381	1850746.339481
9960.000000	419.907478	437.153071	766023.198743
9950.000000	507.905502	492.611932	3463626.253330
9940.000000	770.035848	797.241203	3776266.388135
9930.000000	802.515010	778.651891	4704528.476189
9920.000000	1295.991861	1250.866926	5647000.877345
9910.000000	1218.843106	1069.842777	3016633.145105
9900.000000	906.298713	924.602928	7717707.731905
9890.000000	1070.250931	1118.279866	5102974.112427
9880.000000	917.494481	956.427552	7025851.459129
9870.000000	1617.874149	1486.805404	7138198.230269
9860.000000	1235.570879	1263.575762	2698212.781678
9850.000000	1650.804482	1791.755176	6973346.244925
9840.000000	1916.540197	1979.304583	3786385.391307
9830.000000	1889.695592	1603.855743	2560880.178770
9820.000000	1194.061051	1280.232509	1664312.239171
9810.000000	1351.240661	1376.006484	314418.995323
9800.000000	1254.304115	1394.549691	766572.126312
9790.000000	1193.144468	1345.527953	1432857.061542
9780.000000	874.210081	817.237625	2555463.340882
9770.000000	888.021407	948.694807	4277627.684419
9760.000000	1030.862773	1026.925145	2794853.118098
9750.000000	1096.830669	1029.079910	7420190.423811
9740.000000	1159.819161	1121.377827	6706138.675387
9730.000000	1362.606054	1390.286602	7037983.825091
9720.000000	1126.067966	1106.466850	7604194.965865
9710.000000	1302.912500	1270.017562	3032323.306279
9700.000000	1437.616664	1512.911449	5486739.914108
9690.000000	1340.460445	1413.882871	4111132.430212
9680.000000	1663.783938	1645.438500	4369222.043785
9670.000000	1878.806878	1831.339692	3617781.984477
9660.000000	1806.971949	2088.372758	844195.596938
9650.000000	1219.579084	1251.003275	1756341.215164
9640.000000	1348.460195	1410.534152	2005174.452347
9630.000000	1067.947535	1030.644810	3896261.747586
9620.000000	889.381563	973.879142	6526980.917924
9610.000000	957.737881	956.050809	4404248.925521
9600.000000	838.370576	754.746780	14023031.684432
9590.000000	826.683092	943.628798	10283296.485341
9580.000000	1121.539882	1145.888878	13673705.688494
9570.000000	1116.302466	1018.571433	17657264.655848
9560.000000	1350.222783	1246.731225	7987921.064465
9550.000000	1294.284654	1253.214559	17611093.899144
9540.000000	1090.395172	1010.019558	10221912.211140
9530.000000	969.089278	984.889374	10909030.194410
9520.000000	832.238533	963.788157	15257109.562960
9510.000000	940.898885	1013.438175	7271947.204475
9500.000000	785.737404	737.129631	16639299.872981
9490.000000	901.094437	940.473875	13461458.140276
9480.000000	944.465836	861.767138	14656543.970405
9470.000000	878.437797	973.119458	20616074.815752
9460.000000	1290.438350	1404.400164	9726289.402521
9450.000000	1655.507105	1727.398174	21375156.014965
9440.000000	1138.009163	1249.103154	12460473.123530
9430.000000	960.106777	966.124681	12265781.845645
9420.000000	1000.126646	1000.746496	15656900.558593
9410.000000	956.760149	888.917791	6344448.427589
9400.000000	828.445222	965.206926	13871039.224964
9390.000000	935.660325	1047.551200	10654097.318714
9380.000000	1018.783630	1047.401247	11375184.313908
9370.000000	846.238363	855.563442	11597609.937428
9360.000000	835.546717	842.128339	3593287.873514
9350.000000	761.298265	795.113382	6837051.418129
9340.000000	761.643907	851.921245	3785246.725176
9330.000000	773.243584	839.771147	4072141.402504
9320.000000	822.558757	803.758531	4540752.676782
9310.000000	859.077433	872.412754	2822621.460996
9300.000000	645.824588	595.610465	8434944.472016
9290.000000	598.505306	629.870947	6171979.592200
9280.000000	592.160058	642.977125	5543462.787581
9270.000000	632.101112	605.003146	8730692.395177
9260.000000	568.282216	579.578809	3407915.819374
9250.000000	568.560554	708.438381	7564204.150037
9240.000000	500.402899	607.751005	4517684.395505
9230.000000	597.342430	636.674252	4591394.694928
9220.000000	510.550862	559.923324	6838683.570281
9210.000000	986.851047	904.731899	2843907.677909
9200.000000	578.131680	757.834178	9681230.857736
9190.000000	493.508860	553.269044	7271881.402265
9180.000000	538.949750	650.403234	9804539.507636
9170.000000	535.320054	668.309883	17097270.230885
9160.000000	555.838359	575.489262	8442540.641209
9150.000000	547.923731	557.119695	17687206.521037
9140.000000	629.142049	606.262717	9741386.584759
9130.000000	636.495876	701.627607	12529803.206817
9120.000000	550.240203	607.082212	8800297.203220
9110.000000	592.816454	713.364980	3164685.149786
9100.000000	496.784825	550.003035	5705147.118674
9090.000000	583.624251	621.912189	6129239.020765
9080.000000	649.830410	682.677336	9694552.486865
9070.000000	565.782852	603.109669	17533350.321957
9060.000000	843.452017	799.627757	10568971.439752
9050.000000	620.182693	755.259372	30660544.970425
9040.000000	817.504203	948.561500	24610635.155268
9030.000000	803.738807	831.426396	26286679.242325
9020.000000	761.383155	792.403390	28032202.170578
9010.000000	1192.532398	1263.025221	8597956.248892
9000.000000	1164.372748	1296.880797	9239535.602920
8990.000000	931.234032	932.416643	3311300.755313
8980.000000	906.204338	873.413562	2219260.897932
8970.000000	800.585772	824.741331	1302922.182079
8960.000000	723.729033	811.571451	904310.828329
8950.000000	641.331843	639.382166	1624615.809431
8940.000000	751.929456	846.897532	1619313.887011
8930.000000	881.575040	1083.460674	1193117.383735
8920.000000	870.475172	1016.947984	3549182.900871
8910.000000	866.811524	1271.276500	2594045.183481
8900.000000	876.067629	1204.764130	10362445.118040
8890.000000	815.360913	1949.838412	9516923.759971
8880.000000	788.521877	1169.928441	13186681.852130
8870.000000	738.855631	1069.122111	15881892.535360
8860.000000	863.720123	1382.925791	7103592.553098
8850.000000	763.349411	1071.315109	16877849.940004
8840.000000	832.581117	1656.295630	13605925.357189
8830.000000	796.757264	874.633847	17024434.842284
8820.000000	715.567061	910.365563	25372524.870733
8810.000000	850.024186	1065.528624	12721670.114659
8800.000000	610.039485	683.096896	41144898.522330
8790.000000	820.463545	852.894185	33553849.872168
8780.000000	724.802329	774.382495	37227669.905725
8770.000000	578.526411	617.445565	42797104.556097
8760.000000	683.821675	745.789634	17257315.861178
8750.000000	638.748746	681.813397	30908817.570027
8740.000000	611.523805	624.021953	13772481.972328
8730.000000	580.997013	622.346215	8402578.216113
8720.000000	513.453280	517.496326	5472174.418720
8710.000000	609.787968	719.563826	701789.342652
8700.000000	835.521026	1063.624002	1199760.707259
8690.000000	679.319215	729.180232	3257273.722985
8680.000000	930.410503	1015.464365	8337071.415289
8670.000000	856.879211	882.504155	22370348.746024
8660.000000	925.763025	1058.386883	12643107.090949
8650.000000	828.669586	910.578413	37282644.468615
8640.000000	918.593796	892.879805	27266914.027805
8630.000000	852.814782	947.621836	32950075.503891
8620.000000	1005.705743	993.047490	43594003.322549
8610.000000	1305.808795	1268.891815	21266082.498556
8600.000000	1868.356642	1764.503415	52704400.889876
8590.000000	2082.718225	1986.517442	34636768.455022


# 
# Scan parameters: power 16.000000 dBm, bandwidth 1.500000 Hz
# Frequency [MHz]	avg noise	std noise	peak value
10000.000000	433.818657	508.377745	2639100.659866
9990.000000	488.764009	503.054332	1704914.731906
9980.000000	420.049881	384.417150	1641417.728093
9970.000000	413.704250	422.689538	1978183.109466
9960.000000	424.205280	426.682504	780413.196229
9950.000000	570.643212	590.225499	3412198.636493
9940.000000	978.089066	952.722308	3723174.552807
9930.000000	1329.171395	1433.002927	4198993.592576
