# Scan parameters: power 16.000000 dBm, bandwidth 1.500000 Hz
# Frequency [MHz]	avg noise	std noise	peak value
10000.000000	27.442108	48.963810	2156.198438
9990.000000	31.771671	78.171921	1768.784528
9980.000000	33.118822	62.897653	1577.117305
9970.000000	32.972378	83.007963	1571.508400
9960.000000	27.561749	49.041725	2261.974852
9950.000000	22.399922	42.589064	3312.539392
9940.000000	22.683882	36.714465	3175.451278
9930.000000	25.205226	65.833315	3561.639661
9920.000000	22.389573	39.479472	3003.848732
9910.000000	25.906302	66.851556	2052.414729
9900.000000	20.892922	55.769171	1811.511981
9890.000000	23.949184	51.523738	2323.293844
9880.000000	25.828785	64.077044	3183.825955
9870.000000	25.565850	43.180952	3113.614042
9860.000000	23.530007	50.963308	1745.270374
9850.000000	25.438965	40.044145	1847.904429
9840.000000	28.997191	94.545106	1389.007465
9830.000000	22.164841	65.393625	1425.087283
9820.000000	21.228616	37.985198	1567.932878
9810.000000	22.720199	40.603354	1477.473215
9800.000000	24.304584	64.754368	1555.918417
9790.000000	25.766423	44.874397	1643.396625
9780.000000	22.481788	42.912221	1740.755455
9770.000000	27.630281	89.120656	1866.923177
9760.000000	26.646651	52.824942	1872.664245
9750.000000	26.030945	68.537441	1061.445131
9740.000000	20.947708	46.632036	1175.567941
9730.000000	22.550176	59.712530	1512.671248
9720.000000	24.718895	40.548188	1539.619340
9710.000000	22.345081	46.426840	1910.838287
9700.000000	24.892713	37.996414	2246.214126
9690.000000	25.533343	91.085384	1396.609591
9680.000000	24.109845	81.711893	1488.309398
9670.000000	24.063269	52.029048	1408.605044
9660.000000	20.563386	36.904042	1473.526718
9650.000000	22.257598	59.453528	1126.066651
9640.000000	19.833727	43.972441	1084.116729
9630.000000	21.377061	35.738298	1546.389825
9620.000000	19.923880	46.875544	1199.981918
9610.000000	26.406131	88.268845	1584.487560
9600.000000	23.429527	62.694404	1475.112388
9590.000000	22.386653	59.152328	1458.220758
9580.000000	23.695026	76.040131	1370.532713
9570.000000	20.045994	43.463563	1492.121510
9560.000000	20.871980	42.990285	1404.633935
9550.000000	20.045839	50.390801	1559.116639
9540.000000	22.891064	42.066412	1346.882022
9530.000000	23.855970	66.343222	1165.793241
9520.000000	24.959660	73.759899	1502.891012
9510.000000	21.135656	52.465071	1484.187006
9500.000000	22.896380	53.142392	2128.367180
