# Scan parameters: power 16.000000 dBm, bandwidth 1.500000 Hz
# Frequency [MHz]	avg noise	std noise	peak value
10000.000000	1019.557900	3929.455239	46998.748627
9990.000000	1249.089345	4970.967216	48252.538947
9980.000000	1713.042401	8553.494604	43873.235848
9970.000000	1259.052556	5970.798320	43781.768889
9960.000000	1365.671004	5811.827152	49224.526633
9950.000000	1334.695279	5615.239829	46810.772574
9940.000000	1216.505678	4496.652880	43474.834063
9930.000000	1209.424618	5037.984885	44627.656708
9920.000000	1360.578176	4967.172454	40885.362457
9910.000000	1446.654428	7013.994489	45974.526930
9900.000000	1435.914274	6724.528973	49410.959477
9890.000000	1844.056728	9485.948567	39154.443805
9880.000000	1298.005347	4503.522408	46018.003342
9870.000000	1192.255704	5359.330332	46738.584850
9860.000000	1199.338259	4885.008948	40778.296099
9850.000000	1341.599771	6358.029835	36424.098556
9840.000000	1267.329890	4764.698003	46138.928427
9830.000000	1490.517213	6769.095176	45196.425047
9820.000000	1069.387250	3916.310259	40970.296055
9810.000000	1233.276384	5614.525071	45186.995817
9800.000000	1318.095061	6546.973825	46218.863585
9790.000000	1371.849133	5928.014344	49489.233327
9780.000000	1668.616664	7132.882054	47255.172691
9770.000000	1525.313410	7081.112992	45989.112905
9760.000000	1542.301681	7325.309509	45789.050564
9750.000000	1748.419983	8738.617677	46045.845239
9740.000000	1126.794628	5005.090145	47422.249369
9730.000000	1564.113406	6422.556042	41215.670986
9720.000000	1571.223714	7300.997515	43720.985305
9710.000000	1407.795523	7054.808251	49190.444163
9700.000000	1257.148685	4201.203914	52325.375238
9690.000000	1940.351442	9700.347709	42567.289595
9680.000000	1365.213453	5709.098637	49215.585218
9670.000000	1627.516302	7699.861911	42722.835247
9660.000000	995.485236	3932.444744	50238.222385
9650.000000	1606.463856	6966.606916	45208.536834
9640.000000	1295.714993	6799.731664	47705.623877
9630.000000	1733.205494	6037.217906	50066.756066
9620.000000	1483.055180	5637.567265	47197.013353
9610.000000	1283.775775	4576.269673	44113.922045
9600.000000	1410.144513	6029.353115	50926.163549
9590.000000	1499.974841	9145.905230	53189.032184
9580.000000	1500.475170	6704.633566	44851.629010
9570.000000	1281.555626	4978.223935	48592.328943
9560.000000	1171.732398	4757.447662	48554.619783
9550.000000	1556.948591	7249.418848	51852.904995
9540.000000	1666.397731	8656.445021	45843.203965
9530.000000	1783.502014	8199.509860	49856.268286
9520.000000	1309.920409	5509.121125	50927.305624
9510.000000	1145.057642	4241.287375	44696.803116
9500.000000	1280.812391	4959.549753	47453.476356
